"Time (s)","X (rad/s)","Y (rad/s)","Z (rad/s)"
3.012529167E-2,-2.953189015E-1,1.166607618E0,2.965280116E-1
4.009629169E-2,-3.568810523E-1,1.534263134E0,2.419193387E-1
5.006629170E-2,-3.977422118E-1,1.619272590E0,2.037357390E-1
6.003629172E-2,-3.764321208E-1,1.442503333E0,1.863098741E-1
7.000729174E-2,-3.236430287E-1,1.233597159E0,1.328637451E-1
7.997729175E-2,-2.720786333E-1,8.392594457E-1,2.652371861E-2
8.994829166E-2,-2.020333558E-1,3.870378137E-1,8.443193510E-3
9.991829167E-2,-8.625455201E-2,-2.650954202E-2,9.938292205E-3
1.098892917E-1,3.150379285E-2,-3.860985935E-1,-6.858757138E-2
1.198592917E-1,8.962835371E-2,-6.161374450E-1,-1.732412726E-1
1.298302917E-1,1.048147380E-1,-7.437579632E-1,-2.407085747E-1
1.398002917E-1,1.132436395E-1,-7.779479027E-1,-2.481209487E-1
1.497702918E-1,1.106891111E-1,-7.407612205E-1,-2.172386795E-1
1.597412917E-1,8.569880575E-2,-6.554473639E-1,-1.628422886E-1
1.697112917E-1,5.778644234E-2,-5.467463732E-1,-9.300655872E-2
1.796822917E-1,3.099930286E-2,-4.356608689E-1,-3.074371815E-2
1.896522917E-1,8.655486628E-3,-2.988550663E-1,1.163745672E-2
1.996232917E-1,-6.399095990E-3,-1.746084988E-1,3.553746268E-2
2.095932917E-1,-2.006752416E-2,-7.368239015E-2,4.354242608E-2
2.195632918E-1,-3.005437739E-2,9.482538328E-3,4.196530208E-2
2.295342917E-1,-3.844852746E-2,9.540474415E-2,2.177925780E-2
2.395042917E-1,-4.397352040E-2,1.667066067E-1,6.273686886E-4
2.494752917E-1,-4.794605821E-2,2.031877786E-1,-6.691443734E-3
2.594452917E-1,-5.281405151E-2,2.317853272E-1,6.358046085E-3
2.694162917E-1,-4.761344567E-2,2.317735851E-1,-2.789490391E-4
2.793862917E-1,-4.775992036E-2,2.200042754E-1,-2.600348741E-2
2.893562918E-1,-4.587932304E-2,1.756486446E-1,-5.239736289E-2
2.993272917E-1,-3.792259842E-2,1.120954975E-1,-7.095320523E-2
3.092972917E-1,-3.262495995E-2,4.779786244E-2,-8.742606640E-2
3.192682917E-1,-2.146524936E-2,-1.468735281E-2,-8.761195093E-2
3.292382917E-1,-1.736852713E-2,-8.650165051E-2,-9.005552530E-2
3.392092917E-1,-1.862101071E-2,-1.180049777E-1,-8.225166798E-2
3.491792917E-1,-2.580520138E-2,-1.061054692E-1,-6.729265302E-2
3.591492918E-1,-3.505089879E-2,-6.618228555E-2,-5.440881848E-2
3.691202917E-1,-4.801354930E-2,-3.132287040E-2,-3.472995386E-2
3.790902917E-1,-6.367613375E-2,-1.172732934E-2,-2.374912146E-4
3.890612917E-1,-7.189475000E-2,-1.339217741E-2,2.750164084E-2
3.990312917E-1,-8.911767602E-2,-1.745109446E-3,5.323470011E-2
4.090022917E-1,-1.191819012E-1,3.038374335E-2,7.854662091E-2
4.189722918E-1,-1.589532942E-1,1.429206729E-1,1.108821929E-1
4.289422918E-1,-2.044295669E-1,1.576347202E-1,1.140937507E-1
4.389132917E-1,-2.505480647E-1,5.348808318E-2,9.530328214E-2
4.488832917E-1,-3.032105267E-1,6.804148108E-2,1.089974642E-1
4.588542917E-1,-3.640275300E-1,1.456822157E-1,1.715937257E-1
4.688242917E-1,-4.355470538E-1,2.033262253E-1,2.430426329E-1
4.787952917E-1,-5.086880922E-1,2.491403222E-1,2.871368527E-1
4.887652918E-1,-5.714817047E-1,3.188658953E-1,3.116497695E-1
4.987352918E-1,-6.228282452E-1,3.992049396E-1,3.521063924E-1
5.087062917E-1,-6.699546576E-1,4.723921716E-1,4.067845345E-1
5.186762917E-1,-7.304294705E-1,5.481274128E-1,4.751974046E-1
5.286472917E-1,-7.931933999E-1,6.398517489E-1,5.393133163E-1
5.386172917E-1,-8.641176820E-1,7.463086843E-1,5.896049738E-1
5.485882917E-1,-9.271652102E-1,8.385298252E-1,6.374214888E-1
5.585582918E-1,-9.865033627E-1,8.995354176E-1,6.824296713E-1
5.685282917E-1,-1.055859208E0,9.772733450E-1,7.320377827E-1
5.784992917E-1,-1.143183708E0,1.033323646E0,7.683001757E-1
5.884692917E-1,-1.255366445E0,9.635366201E-1,7.927529216E-1
5.984402917E-1,-1.365746737E0,7.990856171E-1,8.186202049E-1
6.084102917E-1,-1.424521685E0,5.845889449E-1,8.235849142E-1
6.183812917E-1,-1.415490627E0,2.939057648E-1,8.032388687E-1
6.283512918E-1,-1.370435715E0,-5.683115870E-2,7.736040354E-1
6.383212917E-1,-1.325331450E0,-3.829056919E-1,7.580618262E-1
6.482922917E-1,-1.283422470E0,-5.844032764E-1,7.878750563E-1
6.582622917E-1,-1.248352408E0,-6.467316151E-1,8.596752286E-1
6.682332917E-1,-1.238038421E0,-5.422201157E-1,9.471997619E-1
6.782032917E-1,-1.288846135E0,-2.709185481E-1,1.040286064E0
6.881742917E-1,-1.390742779E0,1.212223619E-1,1.111445308E0
6.981442918E-1,-1.489501834E0,5.397874117E-1,1.158030868E0
7.081142917E-1,-1.571627617E0,8.894129395E-1,1.201255918E0
7.180852917E-1,-1.648764729E0,1.169533253E0,1.264958739E0
7.280552917E-1,-1.689606428E0,1.441517711E0,1.324947119E0
7.380262917E-1,-1.726416111E0,1.736633539E0,1.366126537E0
7.479962917E-1,-1.784144521E0,2.054703236E0,1.399141669E0
7.579662917E-1,-1.836125493E0,2.329004288E0,1.447783828E0
7.679372918E-1,-1.861564994E0,2.553105354E0,1.504317641E0
7.779072917E-1,-1.894339204E0,2.737227917E0,1.552604437E0
7.878782917E-1,-1.919247150E0,2.887779713E0,1.538535714E0
7.978482917E-1,-1.903052926E0,3.022917509E0,1.481381774E0
8.078192917E-1,-1.865833759E0,3.092397928E0,1.390658617E0
8.177892917E-1,-1.861006975E0,3.026541948E0,1.326964378E0
8.277592917E-1,-1.859679699E0,2.849239349E0,1.318338871E0
8.377302918E-1,-1.828037977E0,2.606252432E0,1.337224245E0
8.477002917E-1,-1.799205303E0,2.340424299E0,1.316607714E0
8.576712917E-1,-1.801812530E0,2.055063009E0,1.228878617E0
8.676412917E-1,-1.795573235E0,1.768558264E0,1.121146917E0
8.776112917E-1,-1.772519231E0,1.468724489E0,1.020909309E0
8.875822917E-1,-1.733670712E0,1.156630158E0,9.493999481E-1
8.975522917E-1,-1.683137774E0,8.765640855E-1,9.097145796E-1
9.075231251E-1,-1.636571765E0,6.629933715E-1,8.940604925E-1
9.174931251E-1,-1.608439684E0,4.940043092E-1,8.769502044E-1
9.274641251E-1,-1.574978948E0,3.353600800E-1,8.552852273E-1
9.374341250E-1,-1.542144537E0,2.234966904E-1,8.195874095E-1
9.474041250E-1,-1.531675220E0,1.724624038E-1,7.897161841E-1
9.573751250E-1,-1.539329410E0,1.568658650E-1,7.544385791E-1
9.673451250E-1,-1.540972829E0,1.640825868E-1,7.232981920E-1
9.773161251E-1,-1.539271235E0,2.080503106E-1,6.719356179E-1
9.872861251E-1,-1.530933499E0,2.952455580E-1,6.210723519E-1
9.972561251E-1,-1.531414032E0,4.199017286E-1,5.863926411E-1
1.007227125E0,-1.546508789E0,5.404620171E-1,5.478255153E-1
1.017197125E0,-1.578901649E0,6.638351083E-1,4.992600679E-1
1.027168125E0,-1.568499088E0,7.796365023E-1,4.352787733E-1
1.037138125E0,-1.522569418E0,8.952957392E-1,3.723240495E-1
1.047109125E0,-1.469927311E0,1.010218620E0,3.275502622E-1
1.057079125E0,-1.420958757E0,1.113559723E0,2.981508374E-1
1.067049125E0,-1.399776340E0,1.187781692E0,2.728782296E-1
1.077020125E0,-1.403731942E0,1.216275096E0,2.460260838E-1
1.086990125E0,-1.394679785E0,1.212157369E0,1.984532773E-1
1.096961125E0,-1.349868655E0,1.167579293E0,1.322249919E-1
1.106931125E0,-1.283269405E0,1.102596760E0,6.183365360E-2
1.116902125E0,-1.202578187E0,1.062107682E0,-1.306615677E-2
1.126872125E0,-1.135232925E0,1.102710366E0,-1.027116701E-1
1.136842125E0,-1.078063846E0,1.183800936E0,-2.050215155E-1
1.146813125E0,-1.036386967E0,1.225488186E0,-2.863273323E-1
1.156783125E0,-9.898178577E-1,1.221422911E0,-3.569370508E-1
1.166754125E0,-9.667582512E-1,1.138050437E0,-4.136501849E-1
1.176724125E0,-9.510453343E-1,1.035655856E0,-4.877997637E-1
1.186694125E0,-9.197005033E-1,9.252969623E-1,-5.895097256E-1
1.196665125E0,-8.724800348E-1,8.323649168E-1,-6.826654673E-1
1.206635125E0,-8.050581813E-1,7.637352347E-1,-7.859638929E-1
1.216606125E0,-7.173621655E-1,7.208541036E-1,-8.915749788E-1
1.226576125E0,-5.916323662E-1,6.917239428E-1,-1.028663158E0
1.236546125E0,-4.760977924E-1,6.344785094E-1,-1.175714135E0
1.246517125E0,-3.780691326E-1,5.468640327E-1,-1.333648682E0
1.256487125E0,-2.874039412E-1,4.465052485E-1,-1.475224018E0
1.266458125E0,-2.175993919E-1,3.047538698E-1,-1.554756284E0
1.276428125E0,-1.617963165E-1,1.685832441E-1,-1.619328618E0
1.286399125E0,-1.233205572E-1,3.861724958E-2,-1.665605068E0
1.296369125E0,-1.117493883E-1,-9.613417089E-2,-1.698018670E0
1.306339125E0,-1.145157740E-1,-2.083854824E-1,-1.735785246E0
1.316310125E0,-1.345896125E-1,-2.554512918E-1,-1.764439464E0
1.326280125E0,-1.423922330E-1,-2.598050833E-1,-1.797326803E0
1.336251125E0,-1.190823838E-1,-2.360395640E-1,-1.814952612E0
1.346221125E0,-7.829672843E-2,-2.260169387E-1,-1.791453481E0
1.356191125E0,-6.686537713E-2,-2.492996156E-1,-1.749064207E0
1.366162125E0,-8.392398804E-2,-2.660793960E-1,-1.712630749E0
1.376132125E0,-6.708990782E-2,-2.468200028E-1,-1.687509775E0
1.386103125E0,-8.874398656E-3,-1.953419596E-1,-1.655378580E0
1.396073125E0,7.180952281E-2,-1.245386377E-1,-1.603883982E0
1.406043125E0,1.400129944E-1,-5.424432829E-2,-1.550084949E0
1.416014125E0,1.573642790E-1,6.142155081E-2,-1.475777984E0
1.425984125E0,1.753197014E-1,2.372454554E-1,-1.370467186E0
1.435955125E0,1.869121641E-1,4.539076984E-1,-1.235550880E0
1.445925125E0,1.805825979E-1,6.357879639E-1,-1.099588156E0
1.455896125E0,1.436682492E-1,7.480452657E-1,-9.883077145E-1
1.465866125E0,1.126991808E-1,8.056393862E-1,-9.177855849E-1
1.475836125E0,7.231900096E-2,8.454515338E-1,-8.725137115E-1
1.485807125E0,3.255681321E-2,8.466031551E-1,-8.449885845E-1
1.495777125E0,2.091747150E-2,7.557896376E-1,-8.305553198E-1
1.505748125E0,3.780260682E-2,6.132081151E-1,-8.241125345E-1
1.515718125E0,1.018798649E-1,4.407601655E-1,-7.494068742E-1
1.525688125E0,1.564764678E-1,2.761813402E-1,-6.706866026E-1
1.535659125E0,1.282922328E-1,1.940401345E-1,-6.158832908E-1
1.545629125E0,4.335786402E-2,2.235824764E-1,-5.690871477E-1
1.555600125E0,-7.002702355E-2,2.731660008E-1,-5.244269967E-1
1.565570125E0,-1.864609569E-1,3.174208105E-1,-5.150137544E-1
1.575540125E0,-3.184701204E-1,3.480141461E-1,-4.907745123E-1
1.585511125E0,-3.929605782E-1,3.607231081E-1,-4.606508017E-1
1.595481125E0,-3.955901563E-1,3.578160107E-1,-4.539231360E-1
1.605452125E0,-3.389867544E-1,3.357799649E-1,-4.567955434E-1
1.615422125E0,-2.839655876E-1,2.535918653E-1,-4.291652441E-1
1.625392125E0,-2.321983874E-1,9.492520243E-2,-3.907381296E-1
1.635363125E0,-1.575081646E-1,-7.109332830E-2,-3.964934945E-1
1.645333125E0,-7.625461370E-2,-2.748486400E-1,-4.065836668E-1
1.655304125E0,1.533928327E-3,-4.652228355E-1,-4.297329187E-1
1.665274125E0,8.574639261E-2,-5.442138910E-1,-4.634071887E-1
1.675244125E0,1.493663788E-1,-4.713799059E-1,-4.771932960E-1
1.685215125E0,1.693239957E-1,-2.425633967E-1,-4.384281337E-1
1.695185125E0,1.099078059E-1,7.486197352E-2,-3.567897379E-1
1.705156125E0,3.422955796E-2,3.887040317E-1,-2.534465790E-1
1.715126125E0,-3.060882725E-2,6.100113988E-1,-1.715692878E-1
1.725097125E0,-9.083731472E-2,7.097437382E-1,-1.401069760E-1
1.735067125E0,-1.370487511E-1,6.561367512E-1,-1.636621058E-1
1.745037125E0,-1.509048939E-1,4.975860119E-1,-2.298283428E-1
1.755008125E0,-1.482052356E-1,2.619748414E-1,-2.805969715E-1
1.764978125E0,-1.288337708E-1,1.919936202E-2,-3.094726801E-1
1.774949125E0,-9.643748403E-2,-2.108607292E-1,-3.190752268E-1
1.784919125E0,-4.079249874E-2,-4.258227050E-1,-3.517495692E-1
1.794889125E0,3.560933098E-2,-5.819531679E-1,-3.745526075E-1
1.804860125E0,1.088456362E-1,-6.822500825E-1,-3.964417577E-1
1.814830125E0,1.214943230E-1,-7.259967327E-1,-3.875939548E-1
1.824801125E0,9.191198647E-2,-6.760630012E-1,-3.361043334E-1
1.834771125E0,3.434243426E-2,-5.353040695E-1,-2.683255374E-1
1.844741125E0,-6.832454354E-2,-3.376721442E-1,-2.253174782E-1
1.854712125E0,-1.760954857E-1,-1.252224743E-1,-1.987878680E-1
1.864682125E0,-2.406995893E-1,7.031527907E-2,-1.741651595E-1
1.874653125E0,-2.337218374E-1,2.219679207E-1,-1.537640244E-1
1.884623125E0,-1.981875747E-1,2.649347484E-1,-1.384291500E-1
1.894593125E0,-1.688046455E-1,2.487960160E-1,-1.389764398E-1
1.904565292E0,-1.697229892E-1,2.079561204E-1,-1.444988549E-1
1.914535292E0,-1.828068346E-1,1.559813321E-1,-1.183980033E-1
1.924506292E0,-1.776317209E-1,9.334283322E-2,-9.673956782E-2
1.934476292E0,-1.801425517E-1,4.364718124E-2,-1.040110663E-1
1.944446292E0,-1.978377253E-1,3.652573377E-2,-1.032920256E-1
1.954417292E0,-2.381505370E-1,5.784034356E-2,-6.524557620E-2
1.964387292E0,-2.696812749E-1,7.856134325E-2,2.919764956E-3
1.974358292E0,-2.689590454E-1,1.369905621E-1,6.964287162E-2
1.984328292E0,-2.190665752E-1,2.536000311E-1,1.069014296E-1
1.994298292E0,-1.382297724E-1,4.195469022E-1,1.221999526E-1
2.004269292E0,-8.544776589E-2,5.751631856E-1,1.149658859E-1
2.014239292E0,-8.875328302E-2,6.773902178E-1,8.172324300E-2
2.024210292E0,-9.481360018E-2,7.117090225E-1,2.992927656E-2
2.034180292E0,-8.416602015E-2,6.843039989E-1,-6.904496998E-2
2.044150292E0,-3.628682345E-2,6.130647659E-1,-2.033486217E-1
2.054121292E0,2.003716864E-2,5.219465494E-1,-3.479939699E-1
2.064091292E0,9.044974297E-2,4.386556447E-1,-4.740878046E-1
2.074062292E0,1.911891401E-1,3.930785656E-1,-5.668805838E-1
2.084032292E0,3.175566494E-1,4.348126948E-1,-6.284443140E-1
2.094002292E0,4.630787075E-1,5.218892694E-1,-6.585593820E-1
2.103973292E0,5.768983960E-1,6.483957171E-1,-6.697425246E-1
2.113943292E0,6.087902784E-1,9.075791240E-1,-6.526199579E-1
2.123914292E0,5.261960626E-1,1.310646176E0,-5.926313400E-1
2.133884292E0,3.359771371E-1,1.783180475E0,-5.009540915E-1
2.143854292E0,1.593679339E-1,2.197555542E0,-4.000823200E-1
2.153825292E0,3.813710809E-2,2.448409796E0,-3.288675249E-1
2.163795292E0,-2.759010531E-2,2.455204487E0,-2.884995937E-1
2.173766292E0,-5.740978569E-2,2.306535244E0,-2.775883377E-1
2.183736292E0,-9.137129784E-2,2.109012127E0,-3.253777921E-1
2.193706292E0,-1.150422692E-1,1.817283630E0,-4.354305267E-1
2.203677292E0,-5.956178904E-2,1.317517281E0,-6.055959463E-1
2.213647292E0,7.322661579E-2,6.017268896E-1,-8.106785417E-1
2.223618292E0,2.312911898E-1,-2.200549841E-1,-1.022195816E0
2.233588292E0,3.634737134E-1,-9.639688730E-1,-1.224566817E0
2.243558292E0,4.677367508E-1,-1.556156754E0,-1.352687955E0
2.253529292E0,5.244839191E-1,-1.985813379E0,-1.385966539E0
2.263499292E0,5.446439385E-1,-2.165570259E0,-1.367806077E0
2.273470292E0,5.442212820E-1,-2.041314602E0,-1.330035329E0
2.283440292E0,4.945571721E-1,-1.642084002E0,-1.303002954E0
2.293410292E0,4.026482701E-1,-1.083377600E0,-1.288449645E0
2.303381292E0,2.746636569E-1,-5.212516189E-1,-1.258461475E0
2.313351292E0,1.291086227E-1,-5.482372269E-2,-1.167954683E0
2.323322292E0,1.979908347E-2,2.821449041E-1,-1.012489915E0
2.333292292E0,-5.945179984E-2,4.523869455E-1,-7.974668145E-1
2.343263292E0,-1.043897793E-1,4.759782553E-1,-5.835903287E-1
2.353233292E0,-1.160437763E-1,4.028462470E-1,-4.055449665E-1
2.363203292E0,-1.118209213E-1,2.975739539E-1,-2.764773667E-1
2.373174292E0,-1.027232930E-1,1.729856879E-1,-1.798597425E-1
2.383144292E0,-1.062557101E-1,2.470594086E-2,-9.756673872E-2
2.393114292E0,-1.305687726E-1,-2.428743690E-1,-6.493182480E-2
2.403085292E0,-1.513574868E-1,-6.212422252E-1,-1.687274128E-1
2.413055292E0,-1.105956659E-1,-9.638538957E-1,-4.015081823E-1
2.423026292E0,4.291840829E-3,-1.107336640E0,-6.678562164E-1
2.432996292E0,7.438144088E-2,-1.009954691E0,-8.410713673E-1
2.442966292E0,4.396220297E-2,-7.907015681E-1,-9.016399980E-1
2.452937292E0,-1.423585508E-2,-6.028991342E-1,-8.860335946E-1
2.462907292E0,-6.691512465E-2,-4.803682566E-1,-8.191633224E-1
2.472878292E0,-1.085882708E-1,-3.663732409E-1,-7.313410640E-1
2.482848292E0,-1.358570158E-1,-2.605263591E-1,-6.405134797E-1
2.492818292E0,-1.830085516E-1,-1.767323911E-1,-5.548278689E-1
2.502789292E0,-2.212858051E-1,-1.498647332E-1,-4.840475321E-1
2.512759292E0,-2.445535809E-1,-2.214752734E-1,-4.284002483E-1
2.522730292E0,-2.510890365E-1,-3.789150119E-1,-4.166468680E-1
2.532700292E0,-2.297414243E-1,-5.460137129E-1,-4.310772121E-1
2.542670292E0,-2.161759138E-1,-6.422972083E-1,-4.500297904E-1
2.552641292E0,-2.126847804E-1,-6.496360302E-1,-4.817962348E-1
2.562611292E0,-2.079906911E-1,-5.237213373E-1,-5.191411972E-1
2.572582292E0,-2.064524442E-1,-3.184544742E-1,-5.741403103E-1
2.582552292E0,-2.040651739E-1,-1.026267707E-1,-6.494570374E-1
2.592522292E0,-1.858297139E-1,5.102271587E-2,-7.456796765E-1
2.602493292E0,-1.588434726E-1,1.437048167E-1,-8.340415955E-1
2.612463292E0,-1.303346008E-1,1.850243062E-1,-8.799052238E-1
2.622434292E0,-1.172762141E-1,2.027392834E-1,-8.675742745E-1
2.632404292E0,-1.102254987E-1,1.991053969E-1,-8.277528286E-1
2.642374292E0,-1.075513512E-1,1.662537158E-1,-7.922885418E-1
2.652345292E0,-1.038295776E-1,8.134388924E-2,-7.711771131E-1
2.662315292E0,-9.635353088E-2,-4.841908813E-2,-7.460483909E-1
2.672286292E0,-1.005522758E-1,-1.787781566E-1,-7.159706950E-1
2.682256292E0,-9.748502076E-2,-3.007425666E-1,-6.885799766E-1
2.692226292E0,-7.552193105E-2,-3.927334845E-1,-6.722710729E-1
2.702197292E0,-4.363041371E-2,-4.355905354E-1,-6.547484994E-1
2.712167292E0,-3.619513661E-2,-4.578529894E-1,-6.575937867E-1
2.722138292E0,-2.960336022E-2,-4.802451730E-1,-6.928505898E-1
2.732108292E0,-2.548637800E-2,-4.893451929E-1,-7.385003567E-1
2.742078292E0,-4.846554995E-2,-4.172292650E-1,-7.746066451E-1
2.752049292E0,-6.746613979E-2,-2.503920794E-1,-7.918186784E-1
2.762019292E0,-4.365419596E-2,-4.043689370E-2,-8.029823899E-1
2.771990292E0,-2.423016541E-2,1.628033072E-1,-7.969436646E-1
2.781960292E0,-2.264452912E-2,2.717662156E-1,-7.659981847E-1
2.791930292E0,-4.047945514E-2,2.445077151E-1,-7.298340201E-1
2.801901292E0,-6.824786961E-2,1.352572441E-1,-7.018141747E-1
2.811871292E0,-9.356680512E-2,1.865355880E-3,-6.753503084E-1
2.821842292E0,-1.009687111E-1,-1.157829016E-1,-6.533119082E-1
2.831812292E0,-9.642402828E-2,-2.111943662E-1,-6.412903666E-1
2.841782292E0,-1.000122800E-1,-2.918148339E-1,-6.293731928E-1
2.851753292E0,-1.124614924E-1,-3.170091212E-1,-6.288461685E-1
2.861723292E0,-1.195500344E-1,-2.645472586E-1,-6.436324120E-1
2.871694292E0,-1.113046259E-1,-1.310307384E-1,-6.826530695E-1
2.881664292E0,-9.493727982E-2,2.372401766E-2,-7.244555354E-1
2.891634292E0,-1.041414291E-1,1.731478572E-1,-7.412638068E-1
2.901605292E0,-1.350729764E-1,2.617938519E-1,-7.376618981E-1
2.911574250E0,-1.537955403E-1,2.830272317E-1,-7.390925288E-1
2.921544250E0,-1.553929895E-1,2.614712119E-1,-7.454041839E-1
2.931515250E0,-1.611502171E-1,2.447047532E-1,-7.346753478E-1
2.941485250E0,-1.571506560E-1,2.807550132E-1,-6.951942444E-1
2.951456250E0,-1.641031057E-1,3.414902687E-1,-6.582157612E-1
2.961426250E0,-1.868744940E-1,4.100628197E-1,-6.347414851E-1
2.971396250E0,-2.000025362E-1,4.600357115E-1,-6.266499758E-1
2.981367250E0,-2.132214904E-1,5.157119632E-1,-6.286640763E-1
2.991337250E0,-2.312018126E-1,5.709091425E-1,-6.297019124E-1
3.001308250E0,-2.462082058E-1,5.822361112E-1,-6.427153349E-1
3.011278250E0,-2.418494076E-1,5.880334973E-1,-6.677080393E-1
3.021248250E0,-2.288334817E-1,6.045821309E-1,-6.946908832E-1
3.031219250E0,-2.125413269E-1,6.198572516E-1,-7.172436118E-1
3.041189250E0,-1.957297623E-1,6.238103509E-1,-7.391297817E-1
3.051160250E0,-1.938077509E-1,6.002903581E-1,-7.450073957E-1
3.061130250E0,-2.037697583E-1,5.183419585E-1,-7.540555596E-1
3.071100250E0,-2.086372077E-1,4.039099514E-1,-7.677868009E-1
3.081071250E0,-2.144250572E-1,2.952000499E-1,-7.606450915E-1
3.091041250E0,-2.400907278E-1,2.238989770E-1,-7.120383978E-1
3.101012250E0,-2.750839591E-1,1.745859236E-1,-6.452028751E-1
3.110982250E0,-2.981005907E-1,1.419875026E-1,-5.990862846E-1
3.120952250E0,-3.001615405E-1,1.234721839E-1,-5.702787638E-1
3.130923250E0,-2.949201763E-1,1.157988235E-1,-5.529255867E-1
3.140893250E0,-2.995867431E-1,1.403906047E-1,-5.333122611E-1
3.150864250E0,-3.162943423E-1,2.006707191E-1,-5.112383962E-1
3.160834250E0,-3.319697082E-1,2.710678577E-1,-4.904164672E-1
3.170804250E0,-3.377652764E-1,3.185064793E-1,-4.724736810E-1
3.180775250E0,-3.489028811E-1,3.328060806E-1,-4.578604996E-1
3.190745250E0,-3.526100218E-1,3.172513545E-1,-4.455079734E-1
3.200715250E0,-3.390192986E-1,3.144462705E-1,-4.507434070E-1
3.210686250E0,-3.199292123E-1,3.158838451E-1,-4.447297156E-1
3.220656250E0,-3.127938807E-1,2.900237143E-1,-4.184541404E-1
3.230627250E0,-3.217756450E-1,2.665692270E-1,-3.979201019E-1
3.240597250E0,-3.395215571E-1,2.613785565E-1,-3.843269646E-1
3.250567250E0,-3.668256104E-1,2.240668833E-1,-3.660720587E-1
3.260538250E0,-3.927894831E-1,1.277031600E-1,-3.536832035E-1
3.270508250E0,-3.872551620E-1,-9.669315186E-4,-3.397428989E-1
3.280479250E0,-3.692727983E-1,-1.045379490E-1,-3.172017336E-1
3.290449250E0,-3.596827388E-1,-1.662942618E-1,-2.702150643E-1
3.300419250E0,-3.509076238E-1,-1.882869005E-1,-2.075802982E-1
