"Time (s)","X (rad/s)","Y (rad/s)","Z (rad/s)"
8.976291632E-3,-4.759326205E-2,-1.498544663E-1,7.390949130E-2
1.894729165E-2,-7.667018473E-2,-7.686173916E-2,6.217719987E-2
2.891829167E-2,-9.032590687E-2,-2.559918538E-2,7.888088375E-2
3.888929146E-2,-8.915757388E-2,-4.459844157E-2,8.615531027E-2
4.886029148E-2,-7.796180248E-2,-1.069352031E-1,9.233748913E-2
5.883129151E-2,-6.777734309E-2,-1.586385965E-1,1.011251211E-1
6.880229153E-2,-5.472465605E-2,-1.771810949E-1,1.167984083E-1
7.877329155E-2,-4.496896639E-2,-1.707671434E-1,1.244893447E-1
8.874429157E-2,-4.775097594E-2,-1.585337669E-1,1.307549626E-1
9.871529159E-2,-5.847153068E-2,-1.461226344E-1,1.365068704E-1
1.086862916E-1,-7.137659192E-2,-1.381892413E-1,1.455367804E-1
1.186572916E-1,-8.542130142E-2,-1.376635283E-1,1.403164417E-1
1.286282917E-1,-8.800312877E-2,-1.202077195E-1,1.366710216E-1
1.385982917E-1,-9.127987921E-2,-1.064951047E-1,1.323766857E-1
1.485692915E-1,-8.868290484E-2,-1.115954891E-1,1.466995478E-1
1.585402915E-1,-8.104789257E-2,-1.377133727E-1,1.765999198E-1
1.685112915E-1,-7.822147757E-2,-1.673959047E-1,2.008048594E-1
1.784809167E-1,-8.457764238E-2,-2.136616707E-1,2.282623202E-1
1.884519167E-1,-9.712489694E-2,-2.577281892E-1,2.639487386E-1
1.984229165E-1,-1.120210215E-1,-2.923439741E-1,3.064219058E-1
2.083939165E-1,-1.509093642E-1,-3.179503679E-1,3.560925126E-1
2.183649165E-1,-2.099535167E-1,-3.349117935E-1,4.140381217E-1
2.283359165E-1,-2.666988075E-1,-3.392862678E-1,4.987173378E-1
2.383069166E-1,-3.232936561E-1,-3.458738625E-1,5.975045562E-1
2.482779166E-1,-3.932478726E-1,-3.707505763E-1,6.916449070E-1
2.582489166E-1,-5.006728768E-1,-4.205058813E-1,8.033863306E-1
2.682199166E-1,-6.060892940E-1,-5.045315027E-1,9.343387485E-1
2.781909166E-1,-6.965749264E-1,-6.086238623E-1,1.076068401E0
2.881619167E-1,-7.634513378E-1,-7.450417280E-1,1.212536931E0
2.981329167E-1,-8.175861835E-1,-8.979111910E-1,1.323813081E0
3.081039165E-1,-8.717624545E-1,-1.108674049E0,1.415917635E0
3.180749165E-1,-9.505084157E-1,-1.378866673E0,1.493695736E0
3.280459165E-1,-1.044984818E0,-1.668376684E0,1.573458910E0
3.380169165E-1,-1.142015815E0,-1.904812932E0,1.642998099E0
3.479879166E-1,-1.235290885E0,-2.060930252E0,1.685513496E0
3.579589166E-1,-1.301804423E0,-2.150330782E0,1.726889491E0
3.679289166E-1,-1.332458019E0,-2.213244677E0,1.777119398E0
3.778999166E-1,-1.345321894E0,-2.267312050E0,1.838596344E0
3.878709166E-1,-1.357947230E0,-2.332405567E0,1.883158803E0
3.978419167E-1,-1.373504877E0,-2.395550728E0,1.894954205E0
4.078129167E-1,-1.396633148E0,-2.462994814E0,1.877148986E0
4.177839165E-1,-1.410930157E0,-2.530209780E0,1.842754245E0
4.277549165E-1,-1.417939425E0,-2.589990139E0,1.787115574E0
4.377259165E-1,-1.381702304E0,-2.664855003E0,1.723694682E0
4.476969165E-1,-1.334135532E0,-2.750676870E0,1.660667062E0
4.576679165E-1,-1.284856915E0,-2.831129313E0,1.617318511E0
4.676389166E-1,-1.228683829E0,-2.893898964E0,1.591064930E0
4.776099166E-1,-1.153556108E0,-2.932981253E0,1.586178303E0
4.875809166E-1,-1.084658980E0,-2.958879232E0,1.597175002E0
4.975519166E-1,-1.047259688E0,-2.976500273E0,1.583204627E0
5.075229167E-1,-1.050408244E0,-3.005355597E0,1.559934020E0
5.174939167E-1,-1.042405725E0,-3.019798040E0,1.519721866E0
5.274649165E-1,-9.926642776E-1,-3.006547451E0,1.438157320E0
5.374359165E-1,-9.222736955E-1,-3.019016266E0,1.331329942E0
5.474069165E-1,-8.386285901E-1,-3.017029047E0,1.216126561E0
5.573779165E-1,-7.802174687E-1,-2.983696938E0,1.112774849E0
5.673489165E-1,-7.739053369E-1,-2.934432983E0,1.042978883E0
5.773189166E-1,-7.865313888E-1,-2.859542847E0,9.865422249E-1
5.872899166E-1,-7.770788074E-1,-2.738729715E0,9.397736788E-1
5.972609166E-1,-7.155355215E-1,-2.600569010E0,9.010244012E-1
6.072319166E-1,-6.167321801E-1,-2.466556787E0,8.411618471E-1
6.172029166E-1,-4.953761995E-1,-2.342385292E0,7.384147048E-1
6.271739167E-1,-3.794186115E-1,-2.219953299E0,6.304494739E-1
6.371449165E-1,-2.872119844E-1,-2.066941977E0,5.497748852E-1
6.471159165E-1,-2.118114084E-1,-1.927518845E0,4.748379290E-1
6.570869165E-1,-1.235550493E-1,-1.834322929E0,3.843069673E-1
6.670579165E-1,-1.574609987E-2,-1.753700256E0,3.048963845E-1
6.770289165E-1,1.057004333E-1,-1.647679567E0,2.402244806E-1
6.869999166E-1,2.398750335E-1,-1.523643851E0,1.926817149E-1
6.969709166E-1,3.785911202E-1,-1.421607494E0,1.382312477E-1
7.069419166E-1,5.053106546E-1,-1.377086282E0,7.020936161E-2
7.169129166E-1,5.982440114E-1,-1.329421282E0,-1.959189773E-2
7.268839166E-1,6.568523645E-1,-1.247991681E0,-1.200168729E-1
7.368549167E-1,7.124029994E-1,-1.139668107E0,-2.191423923E-1
7.468259165E-1,7.623891234E-1,-1.021622539E0,-3.010007441E-1
7.567969165E-1,7.964221835E-1,-8.977890611E-1,-3.745332956E-1
7.667679165E-1,8.200061321E-1,-7.690373659E-1,-4.529756606E-1
7.767389165E-1,8.416046500E-1,-6.254421473E-1,-5.332074165E-1
7.867089165E-1,8.647858500E-1,-4.761714637E-1,-6.140061021E-1
7.966799166E-1,8.904467225E-1,-3.488579988E-1,-6.856443286E-1
8.066509166E-1,9.255861044E-1,-2.307331562E-1,-7.445369959E-1
8.166219166E-1,9.730580449E-1,-1.280078441E-1,-8.095490336E-1
8.265929166E-1,1.032851219E0,-5.536037683E-2,-8.775871992E-1
8.365639166E-1,1.086588264E0,-1.189971901E-2,-9.564679265E-1
8.465349167E-1,1.131990075E0,6.934504025E-3,-1.028563619E0
8.565059167E-1,1.164205194E0,9.069027379E-3,-1.074037552E0
8.664769165E-1,1.183044434E0,3.249438480E-2,-1.079248309E0
8.764479165E-1,1.183493733E0,8.435518295E-2,-1.071151257E0
8.864189165E-1,1.163224697E0,1.486082077E-1,-1.062373519E0
8.963899165E-1,1.105462074E0,2.401077598E-1,-1.043270588E0
9.063609166E-1,1.026839614E0,3.408327401E-1,-1.003914595E0
9.163319166E-1,9.326326847E-1,4.349842668E-1,-9.569085240E-1
9.263029166E-1,8.273094893E-1,5.294687748E-1,-8.974021077E-1
9.362739166E-1,7.090600729E-1,5.967098475E-1,-8.078181148E-1
9.462449166E-1,5.725758076E-1,6.464505792E-1,-7.145771980E-1
9.562159167E-1,4.093848169E-1,6.762183309E-1,-6.481363773E-1
9.661869165E-1,2.547520995E-1,6.610438824E-1,-6.429762840E-1
9.761579165E-1,1.436146349E-1,5.989059210E-1,-6.348855495E-1
9.861279165E-1,6.708994508E-2,5.072348118E-1,-5.876353979E-1
9.960989165E-1,1.264960691E-2,4.073273838E-1,-4.937270284E-1
1.006069917E0,-2.729922906E-2,2.825033665E-1,-3.558947146E-1
1.016040917E0,-6.997026503E-2,1.706370115E-1,-1.989677101E-1
1.026011917E0,-1.145174205E-1,5.244650319E-2,-6.394128501E-2
1.035982917E0,-1.510216296E-1,-4.214391857E-2,3.919790965E-3
1.045953917E0,-2.003155798E-1,-5.734059587E-2,2.886446938E-2
1.055924917E0,-2.431077808E-1,7.869035006E-3,5.387874320E-2
1.065895917E0,-2.689224184E-1,1.360000074E-1,1.130622402E-1
1.075866917E0,-2.796224654E-1,2.870697081E-1,1.797390133E-1
1.085837916E0,-2.828116417E-1,4.129229486E-1,2.115371525E-1
1.095808916E0,-2.969881296E-1,4.974117279E-1,1.699183583E-1
1.105779917E0,-3.144710064E-1,5.637558103E-1,7.243940979E-2
1.115750917E0,-3.448603153E-1,6.370683312E-1,-3.333548829E-2
1.125721917E0,-3.938999474E-1,6.881676316E-1,-8.833325654E-2
1.135692917E0,-4.482428133E-1,6.827536821E-1,-8.726479858E-2
1.145663917E0,-4.827500582E-1,5.966700912E-1,-5.854411796E-2
1.155634917E0,-4.948016405E-1,4.309352338E-1,-5.641465634E-2
1.165605917E0,-5.170684457E-1,2.334313542E-1,-1.117561236E-1
1.175575917E0,-5.613458753E-1,1.748520508E-2,-1.708716452E-1
1.185546917E0,-6.132370234E-1,-1.861293912E-1,-1.641447246E-1
1.195517916E0,-6.215772629E-1,-3.322333097E-1,-9.211447835E-2
1.205488916E0,-5.966895819E-1,-4.176745713E-1,-1.960609853E-2
1.215459917E0,-5.682669878E-1,-4.991196394E-1,-1.009302121E-2
1.225430917E0,-5.655226111E-1,-5.775473118E-1,-6.182066351E-2
1.235401917E0,-5.752050281E-1,-6.073172092E-1,-1.587368250E-1
1.245372917E0,-6.051084995E-1,-5.611264706E-1,-2.557857037E-1
1.255343917E0,-6.679753661E-1,-4.541091919E-1,-2.890331447E-1
1.265314917E0,-7.391841412E-1,-3.326105773E-1,-2.525985837E-1
1.275285917E0,-7.909930348E-1,-2.123968154E-1,-1.743623763E-1
1.285256917E0,-7.896007299E-1,-1.173736155E-1,-4.262691736E-2
1.295227917E0,-7.657374740E-1,-1.068211123E-1,1.309017241E-1
1.305198916E0,-7.576574683E-1,-2.176184654E-1,2.981756032E-1
1.315169916E0,-7.408797741E-1,-4.506080449E-1,4.053763747E-1
1.325140917E0,-6.652192473E-1,-7.595089674E-1,4.388590157E-1
1.335111917E0,-5.343554616E-1,-1.085906625E0,3.875926435E-1
1.345082917E0,-3.689913750E-1,-1.401581764E0,2.857478857E-1
1.355052917E0,-2.080589384E-1,-1.694236517E0,2.331001312E-1
1.365023917E0,-6.018122286E-2,-1.874850988E0,2.457796186E-1
1.374994917E0,6.797727942E-2,-1.876821399E0,2.795809805E-1
1.384965917E0,1.520129293E-1,-1.720765352E0,3.018605709E-1
1.394936917E0,2.045733333E-1,-1.500233293E0,3.206270635E-1
1.404907917E0,2.460905761E-1,-1.289981365E0,3.350181282E-1
1.414878916E0,2.738854289E-1,-1.132442594E0,3.069361746E-1
1.424849916E0,2.992715240E-1,-1.022249222E0,2.290362567E-1
1.434820917E0,3.361754715E-1,-9.691742659E-1,1.612617373E-1
1.444791917E0,3.637354076E-1,-9.959952831E-1,1.230893955E-1
1.454762917E0,3.725022674E-1,-1.077713847E0,7.796240598E-2
1.464733917E0,3.771061599E-1,-1.167191982E0,2.868341655E-2
1.474704917E0,3.887212574E-1,-1.213051081E0,-3.510781378E-2
1.484675917E0,4.127085209E-1,-1.183013082E0,-1.142523140E-1
1.494646917E0,4.662266076E-1,-1.071626663E0,-1.692537665E-1
1.504617917E0,5.418982506E-1,-8.615732789E-1,-1.591020972E-1
1.514588917E0,5.917470455E-1,-5.475444794E-1,-1.143889576E-1
1.524558916E0,5.825339556E-1,-1.880703121E-1,-6.792357564E-2
1.534529916E0,5.111346245E-1,1.007548422E-1,-4.272847250E-2
1.544500916E0,3.958790302E-1,2.667628527E-1,-4.996146634E-2
1.554471917E0,3.634483814E-1,2.969854772E-1,-1.195224300E-1
1.564442917E0,5.203880072E-1,1.138032004E-1,-2.486238033E-1
1.574413917E0,7.653895020E-1,-2.348112464E-1,-3.326057792E-1
1.584384917E0,8.902199864E-1,-5.770279169E-1,-4.245289564E-1
1.594355917E0,8.907619119E-1,-7.825653553E-1,-5.805092454E-1
1.604326917E0,8.514432907E-1,-8.488841057E-1,-7.396267653E-1
1.614297917E0,8.793247342E-1,-8.690679669E-1,-8.214952350E-1
1.624268917E0,9.340499640E-1,-8.695362210E-1,-8.715987206E-1
1.634239916E0,9.878394008E-1,-8.154135942E-1,-9.254472852E-1
1.644210916E0,1.050175905E0,-7.067045569E-1,-9.230735898E-1
1.654181916E0,1.141281009E0,-5.857866406E-1,-8.761273623E-1
1.664152917E0,1.208823919E0,-4.760611057E-1,-7.993350029E-1
1.674123917E0,1.206815362E0,-3.491529822E-1,-7.502071261E-1
1.684094917E0,1.176359773E0,-2.207320482E-1,-7.556270361E-1
1.694064917E0,1.145237803E0,-1.611994803E-1,-8.390367031E-1
1.704035917E0,1.093259096E0,-1.456881762E-1,-9.659282565E-1
1.714006917E0,1.033270597E0,-1.192043722E-1,-1.033409476E0
1.723977917E0,9.744198918E-1,-5.557392165E-2,-1.000502586E0
1.733948917E0,9.548107386E-1,-3.023527563E-2,-9.122288823E-1
1.743919917E0,9.847416878E-1,-7.973045111E-2,-8.661982417E-1
1.753890916E0,9.980545640E-1,-1.108369678E-1,-8.637390733E-1
1.763861916E0,1.010922551E0,-7.811623067E-2,-8.596364856E-1
1.773832917E0,1.044638634E0,-4.265916720E-2,-8.406284451E-1
1.783803917E0,1.084753871E0,-2.666715160E-2,-8.401895761E-1
1.793774917E0,1.105274320E0,-8.667112328E-3,-8.864265680E-1
1.803745917E0,1.110939741E0,1.124939695E-2,-9.449229836E-1
1.813716917E0,1.131440163E0,3.014159389E-2,-9.862105250E-1
1.823687917E0,1.172276855E0,3.952956572E-2,-1.015623569E0
1.833658917E0,1.192122698E0,8.525683731E-2,-1.010234356E0
1.843629917E0,1.217077255E0,1.355788857E-1,-9.749435782E-1
1.853599917E0,1.255810976E0,1.415212005E-1,-9.366241693E-1
1.863570916E0,1.271889448E0,6.790409237E-2,-9.360948205E-1
1.873541916E0,1.232819796E0,-2.979769744E-2,-9.544684887E-1
1.883512917E0,1.151618600E0,-1.296076477E-1,-9.533600807E-1
1.893483917E0,1.089346528E0,-2.616815269E-1,-9.487695694E-1
1.903454917E0,1.079840422E0,-3.669571877E-1,-9.759547114E-1
1.913425917E0,1.077651381E0,-3.889799118E-1,-1.036835670E0
1.923396917E0,1.054161549E0,-3.405987918E-1,-1.077379465E0
1.933367917E0,1.039386630E0,-1.796706170E-1,-1.061002851E0
1.943338917E0,1.076139927E0,-3.324417630E-3,-9.764924645E-1
1.953309917E0,1.149875402E0,1.406700313E-1,-9.188371301E-1
1.963280917E0,1.230241418E0,2.703225613E-1,-9.161707163E-1
1.973251916E0,1.278003573E0,3.517558873E-1,-9.618133307E-1
1.983222916E0,1.302069187E0,3.773826659E-1,-1.010918617E0
1.993193917E0,1.249912500E0,2.931602001E-1,-9.542363286E-1
2.003164917E0,1.148668051E0,1.057316586E-1,-8.592634201E-1
2.013134917E0,1.007539749E0,-1.949706525E-1,-7.862457037E-1
2.023105917E0,8.420620561E-1,-4.746426046E-1,-7.662162185E-1
2.033076917E0,7.836328149E-1,-6.106398702E-1,-7.741394043E-1
2.043047917E0,8.371725678E-1,-6.575742364E-1,-7.273034453E-1
2.053018917E0,9.876904488E-1,-5.949558616E-1,-6.253418922E-1
2.062989917E0,1.218490481E0,-4.336563051E-1,-5.804262757E-1
2.072960917E0,1.470969319E0,-2.574735582E-1,-6.151430011E-1
2.082931916E0,1.683053613E0,-1.234231219E-1,-7.259683013E-1
2.092902916E0,1.814289689E0,3.383201733E-2,-8.365898728E-1
2.102873917E0,1.794701576E0,3.350893855E-1,-9.249188304E-1
2.112844917E0,1.650210738E0,7.392669320E-1,-9.944528937E-1
2.122815917E0,1.472251534E0,1.060593724E0,-1.015133739E0
2.132786917E0,1.316562653E0,1.244737744E0,-9.926036596E-1
2.142757917E0,1.222291589E0,1.292625308E0,-9.361338615E-1
2.152728917E0,1.154737353E0,1.225813746E0,-8.564392924E-1
2.162699917E0,1.094693065E0,1.112923503E0,-7.978144884E-1
2.172669917E0,1.010450125E0,9.573160410E-1,-8.139886856E-1
2.182640292E0,9.122577906E-1,8.120169044E-1,-8.691685796E-1
2.192611292E0,8.140435815E-1,7.296218872E-1,-8.798992038E-1
2.202582292E0,6.852034330E-1,6.000999808E-1,-8.359641433E-1
2.212553292E0,5.462085009E-1,4.514655471E-1,-8.332788348E-1
2.222524292E0,4.047042131E-1,3.134336770E-1,-8.868756294E-1
2.232495292E0,2.626626492E-1,1.793000996E-1,-9.018047452E-1
2.242466292E0,1.531248987E-1,6.612660736E-2,-8.539567590E-1
2.252437292E0,6.942626834E-2,-5.600117147E-2,-7.940670252E-1
2.262408291E0,-2.036797628E-2,-1.802156419E-1,-7.333634496E-1
2.272379291E0,-6.851046532E-2,-2.103027105E-1,-6.733464599E-1
2.282350291E0,-4.711746052E-2,-1.846939623E-1,-6.286819577E-1
2.292321292E0,-1.115520019E-2,-2.283114791E-1,-5.743495226E-1
2.302292292E0,-1.831924543E-2,-2.942418754E-1,-4.915881157E-1
2.312263292E0,-1.448601484E-1,-2.323137969E-1,-3.922849596E-1
2.322233292E0,-3.259009719E-1,-9.809868038E-2,-3.091368675E-1
2.332204292E0,-4.191411734E-1,-1.141437981E-2,-3.514547646E-1
2.342175292E0,-3.577714562E-1,-1.169146150E-1,-5.653079748E-1
2.352146292E0,-9.520802647E-2,-4.958675206E-1,-8.755068779E-1
2.362117292E0,3.911118209E-1,-8.330966830E-1,-1.120436788E0
2.372088292E0,1.065791488E0,-1.050847650E0,-1.250071049E0
2.382059291E0,1.578086734E0,-1.087283015E0,-1.292094231E0
2.392030291E0,1.731378794E0,-1.042545319E0,-1.312246323E0
2.402001292E0,1.503585696E0,-9.711697698E-1,-1.212283969E0
2.411972292E0,1.058629036E0,-8.687941432E-1,-9.712921381E-1
2.421943292E0,6.637673378E-1,-5.514457822E-1,-7.541459799E-1
2.431914292E0,5.003952384E-1,-1.851780266E-1,-6.817237139E-1
2.441885292E0,5.066362023E-1,1.426290423E-1,-6.959006190E-1
2.451856292E0,5.749436617E-1,4.359360337E-1,-6.446121335E-1
2.461827292E0,6.723287702E-1,5.865172148E-1,-5.583789945E-1
2.471797292E0,7.259395719E-1,4.925635457E-1,-5.369898677E-1
2.481768292E0,6.759523153E-1,1.386001855E-1,-6.602507830E-1
2.491739291E0,5.876021981E-1,-2.728480697E-1,-8.258650303E-1
2.501710291E0,5.421099067E-1,-6.042264700E-1,-8.744720817E-1
2.511681292E0,5.161310434E-1,-7.826758027E-1,-8.276529312E-1
2.521652292E0,5.024707913E-1,-7.396985292E-1,-7.480877042E-1
2.531623292E0,4.953881204E-1,-4.815370739E-1,-6.365675330E-1
2.541594292E0,4.990012944E-1,-1.242774427E-1,-5.011456013E-1
2.551565292E0,5.355454683E-1,2.701266110E-1,-3.756465316E-1
2.561536292E0,5.803340077E-1,5.400854349E-1,-2.397448719E-1
2.571507292E0,5.935131907E-1,6.119526625E-1,-1.396342516E-1
2.581478292E0,5.591045618E-1,4.720277488E-1,-9.615282714E-2
2.591449292E0,4.678617418E-1,2.543864846E-1,-1.126766801E-1
2.601420291E0,3.535013199E-1,7.902344316E-2,-1.810349524E-1
2.611391291E0,2.673406005E-1,-6.019409746E-2,-2.703253925E-1
2.621362292E0,2.159994692E-1,-1.865682006E-1,-3.559913635E-1
2.631332292E0,1.950454414E-1,-2.704359293E-1,-4.128501117E-1
2.641303292E0,2.159319520E-1,-2.814612687E-1,-4.128300250E-1
2.651274292E0,2.392876148E-1,-2.689838409E-1,-3.938161135E-1
2.661245292E0,2.518101931E-1,-2.955665886E-1,-3.848416507E-1
2.671216292E0,2.388643026E-1,-4.154357314E-1,-3.981505334E-1
2.681187292E0,1.855541468E-1,-5.826916695E-1,-4.354842603E-1
2.691158292E0,1.146506667E-1,-7.232450247E-1,-4.512408674E-1
2.701129292E0,5.044508353E-2,-7.910152674E-1,-4.312413335E-1
2.711100291E0,2.457593381E-2,-7.469630837E-1,-3.996093869E-1
2.721071291E0,3.298639506E-2,-6.073331237E-1,-3.561411798E-1
2.731042292E0,4.896456376E-2,-4.350864887E-1,-3.032649159E-1
2.741013292E0,6.935863942E-2,-2.716380656E-1,-2.379694134E-1
2.750984292E0,9.954397380E-2,-1.317512691E-1,-1.697139144E-1
2.760955292E0,1.192297786E-1,-5.332972482E-2,-9.891670197E-2
2.770926292E0,1.344231069E-1,-6.346278638E-2,-3.655212373E-2
2.780897292E0,1.599330604E-1,-1.503874809E-1,-8.141582832E-3
2.790867292E0,1.713146120E-1,-2.892641723E-1,1.401322195E-3
2.800838292E0,1.868609637E-1,-4.312051535E-1,7.806639187E-3
2.810809292E0,2.145778239E-1,-5.334742665E-1,-8.461279795E-3
2.820780291E0,2.324173301E-1,-5.747630596E-1,-5.413326621E-2
2.830751291E0,2.290841192E-1,-5.297819972E-1,-1.080676019E-1
2.840722291E0,2.348722816E-1,-4.097642004E-1,-1.401289105E-1
2.850693292E0,2.410931736E-1,-2.617755532E-1,-1.342899352E-1
2.860664292E0,2.464150190E-1,-1.214383319E-1,-1.134952158E-1
2.870635292E0,2.489655167E-1,-1.415475365E-2,-8.249922097E-2
2.880606292E0,2.584381402E-1,4.390482232E-2,-2.128645591E-2
2.890577292E0,2.850982547E-1,4.807426780E-2,3.176664189E-2
2.900548292E0,3.038679063E-1,4.517089576E-2,5.287917331E-2
2.910519292E0,3.233681023E-1,5.723820999E-2,7.197057456E-2
2.920490292E0,3.464990854E-1,5.888997391E-2,9.386511147E-2
2.930461291E0,3.537711203E-1,8.616420627E-2,9.770458937E-2
2.940432291E0,3.503011763E-1,1.363979578E-1,1.100905016E-1
2.950402291E0,3.612456918E-1,1.821220368E-1,1.479422748E-1
2.960373292E0,3.865211904E-1,2.011798769E-1,1.559413522E-1
2.970344292E0,3.956776857E-1,2.046297342E-1,1.259400547E-1
2.980315292E0,3.963848650E-1,1.653982699E-1,1.053433642E-1
2.990286292E0,3.802290559E-1,1.072798371E-1,1.043931469E-1
3.000257292E0,3.283748031E-1,3.977338225E-2,4.980348796E-2
3.010228292E0,2.450671196E-1,-6.646624207E-2,-3.888829798E-2
3.020199292E0,1.851612478E-1,-2.024349123E-1,-1.101481542E-1
3.030170292E0,1.511702538E-1,-3.166784048E-1,-1.511624306E-1
3.040141292E0,1.268129945E-1,-3.658243716E-1,-1.736991704E-1
3.050112291E0,1.294985265E-1,-3.646088839E-1,-1.680202484E-1
3.060083291E0,1.367377788E-1,-3.155612051E-1,-1.293687075E-1
3.070054292E0,1.285453737E-1,-2.215191275E-1,-6.880604476E-2
3.080025292E0,8.997694403E-2,-1.260927320E-1,1.740937587E-4
3.089996292E0,5.626158789E-2,-5.095324665E-2,6.788443029E-2
3.099967292E0,4.516124725E-2,-3.881032020E-2,1.062459499E-1
3.109937292E0,5.437711626E-2,-6.308104098E-2,1.169449314E-1
3.119908292E0,6.501609087E-2,-1.022546068E-1,9.049347043E-2
3.129879292E0,7.859874517E-2,-1.396360695E-1,4.680963978E-2
3.139850292E0,9.694962949E-2,-1.551720649E-1,3.734516352E-2
3.149821292E0,1.064975932E-1,-1.507131308E-1,2.991281450E-2
3.159792291E0,1.029718369E-1,-1.380506009E-1,1.487634052E-2
3.169763291E0,1.013917848E-1,-1.166379824E-1,1.156603172E-2
3.179735250E0,1.170439795E-1,-8.251064271E-2,3.111576661E-2
3.189706250E0,1.436819732E-1,-4.818994924E-2,4.501134157E-2
3.199677250E0,1.648585647E-1,-1.922842115E-2,4.929242656E-2
3.209648250E0,1.983081400E-1,1.212870423E-2,5.131802708E-2
3.219619250E0,2.265865505E-1,7.576484978E-2,4.719106480E-2
3.229590250E0,2.273205072E-1,1.083736569E-1,1.448158547E-2
3.239561250E0,2.256631255E-1,9.962880611E-2,-4.509873688E-3
3.249532250E0,2.466570884E-1,5.046924949E-2,-1.472272328E-3
3.259502250E0,2.657641470E-1,-4.680143669E-2,-1.108091418E-2
3.269473250E0,2.783177793E-1,-1.462523937E-1,-1.767676510E-2
3.279444250E0,2.779552639E-1,-2.139411718E-1,-4.882864188E-3
3.289415250E0,2.617957592E-1,-2.386907339E-1,5.464315414E-3
